7.800000000000000266e-01 7.900000000000000355e-01 8.000000000000000444e-01 8.100000000000000533e-01 8.199999999999999512e-01 8.299999999999999600e-01 8.399999999999999689e-01 8.499999999999999778e-01 8.599999999999999867e-01 8.699999999999999956e-01 8.800000000000000044e-01 8.900000000000000133e-01 9.000000000000000222e-01 9.100000000000000311e-01 9.200000000000000400e-01 9.300000000000000488e-01 9.399999999999999467e-01 9.499999999999999556e-01 9.599999999999999645e-01 9.699999999999999734e-01 9.799999999999999822e-01 9.899999999999999911e-01 1.000000000000000000e+00 1.010000000000000009e+00 1.020000000000000018e+00 1.030000000000000027e+00 1.040000000000000036e+00 1.050000000000000044e+00 1.060000000000000053e+00 1.070000000000000062e+00 1.080000000000000071e+00 1.090000000000000080e+00 1.100000000000000089e+00 1.110000000000000098e+00 1.120000000000000107e+00 1.129999999999999893e+00 1.139999999999999902e+00 1.149999999999999911e+00 1.159999999999999920e+00 1.169999999999999929e+00 1.179999999999999938e+00 1.189999999999999947e+00 1.199999999999999956e+00 1.209999999999999964e+00 1.219999999999999973e+00 1.229999999999999982e+00 1.239999999999999991e+00 1.250000000000000000e+00 1.260000000000000009e+00 1.270000000000000018e+00 1.280000000000000027e+00 1.290000000000000036e+00 1.300000000000000044e+00 1.310000000000000053e+00 1.320000000000000062e+00 1.330000000000000071e+00 1.340000000000000080e+00 1.350000000000000089e+00 1.360000000000000098e+00 1.370000000000000107e+00 1.379999999999999893e+00 1.389999999999999902e+00 1.399999999999999911e+00 1.409999999999999920e+00 1.419999999999999929e+00 1.429999999999999938e+00 1.439999999999999947e+00 1.449999999999999956e+00 1.459999999999999964e+00 1.469999999999999973e+00 1.479999999999999982e+00 1.489999999999999991e+00 1.500000000000000000e+00 1.510000000000000009e+00 1.520000000000000018e+00 1.530000000000000027e+00 1.540000000000000036e+00 1.550000000000000044e+00 1.560000000000000053e+00 1.570000000000000062e+00 1.580000000000000071e+00 1.590000000000000080e+00 1.600000000000000089e+00 1.610000000000000098e+00 1.620000000000000107e+00 1.629999999999999893e+00 1.639999999999999902e+00 1.649999999999999911e+00 1.659999999999999920e+00 1.669999999999999929e+00 1.679999999999999938e+00 1.689999999999999947e+00 1.699999999999999956e+00 1.709999999999999964e+00 1.719999999999999973e+00 1.729999999999999982e+00 1.739999999999999991e+00 1.750000000000000000e+00 1.760000000000000009e+00 1.770000000000000018e+00 1.780000000000000027e+00 1.790000000000000036e+00 1.800000000000000044e+00 1.810000000000000053e+00 1.820000000000000062e+00 1.830000000000000071e+00 1.840000000000000080e+00 1.850000000000000089e+00 1.860000000000000098e+00 1.870000000000000107e+00 1.879999999999999893e+00 1.889999999999999902e+00 1.899999999999999911e+00 1.909999999999999920e+00 1.919999999999999929e+00 1.929999999999999938e+00 1.939999999999999947e+00 1.949999999999999956e+00 1.959999999999999964e+00 1.969999999999999973e+00 1.979999999999999982e+00 1.989999999999999991e+00 2.000000000000000000e+00 2.009999999999999787e+00 2.020000000000000018e+00 2.029999999999999805e+00 2.040000000000000036e+00 2.049999999999999822e+00 2.060000000000000053e+00 2.069999999999999840e+00 2.080000000000000071e+00 2.089999999999999858e+00 2.100000000000000089e+00 2.109999999999999876e+00 2.120000000000000107e+00 2.129999999999999893e+00 2.140000000000000124e+00 2.149999999999999911e+00 2.160000000000000142e+00 2.169999999999999929e+00 2.180000000000000160e+00 2.189999999999999947e+00 2.200000000000000178e+00 2.209999999999999964e+00 2.220000000000000195e+00 2.229999999999999982e+00 2.240000000000000213e+00 2.250000000000000000e+00 2.259999999999999787e+00 2.270000000000000018e+00 2.279999999999999805e+00 2.290000000000000036e+00 2.299999999999999822e+00 2.310000000000000053e+00 2.319999999999999840e+00 2.330000000000000071e+00 2.339999999999999858e+00 2.350000000000000089e+00 2.359999999999999876e+00 2.370000000000000107e+00 2.379999999999999893e+00 2.390000000000000124e+00 2.399999999999999911e+00 2.410000000000000142e+00 2.419999999999999929e+00 2.430000000000000160e+00 2.439999999999999947e+00 2.450000000000000178e+00 2.459999999999999964e+00 2.470000000000000195e+00 2.479999999999999982e+00 2.490000000000000213e+00 2.500000000000000000e+00 2.509999999999999787e+00 2.520000000000000018e+00 2.529999999999999805e+00 2.540000000000000036e+00 2.549999999999999822e+00 2.560000000000000053e+00 2.569999999999999840e+00 2.580000000000000071e+00 2.589999999999999858e+00 2.600000000000000089e+00 2.609999999999999876e+00 2.620000000000000107e+00 2.629999999999999893e+00 2.640000000000000124e+00 2.649999999999999911e+00 2.660000000000000142e+00 2.669999999999999929e+00 2.680000000000000160e+00 2.689999999999999947e+00 2.700000000000000178e+00 2.709999999999999964e+00 2.720000000000000195e+00 2.729999999999999982e+00 2.740000000000000213e+00 2.750000000000000000e+00 2.759999999999999787e+00 2.770000000000000018e+00 2.779999999999999805e+00 2.790000000000000036e+00 2.799999999999999822e+00 2.810000000000000053e+00 2.819999999999999840e+00 2.830000000000000071e+00 2.839999999999999858e+00 2.850000000000000089e+00 2.859999999999999876e+00 2.870000000000000107e+00 2.879999999999999893e+00 2.890000000000000124e+00 2.899999999999999911e+00 2.910000000000000142e+00 2.919999999999999929e+00 2.930000000000000160e+00 2.939999999999999947e+00 2.950000000000000178e+00 2.959999999999999964e+00 2.970000000000000195e+00 2.979999999999999982e+00 2.990000000000000213e+00 3.000000000000000000e+00 3.009999999999999787e+00 3.020000000000000018e+00 3.029999999999999805e+00 3.040000000000000036e+00 3.049999999999999822e+00 3.060000000000000053e+00 3.069999999999999840e+00 3.080000000000000071e+00 3.089999999999999858e+00 3.100000000000000089e+00 3.109999999999999876e+00 3.120000000000000107e+00 3.129999999999999893e+00 3.140000000000000124e+00 3.149999999999999911e+00 3.160000000000000142e+00 3.169999999999999929e+00 3.180000000000000160e+00 3.189999999999999947e+00 3.200000000000000178e+00 3.209999999999999964e+00 3.220000000000000195e+00 3.229999999999999982e+00 3.240000000000000213e+00 3.250000000000000000e+00 3.259999999999999787e+00 3.270000000000000018e+00 3.279999999999999805e+00 3.290000000000000036e+00 3.299999999999999822e+00 3.310000000000000053e+00 3.319999999999999840e+00 3.330000000000000071e+00 3.339999999999999858e+00 3.350000000000000089e+00 3.359999999999999876e+00 3.370000000000000107e+00 3.379999999999999893e+00 3.390000000000000124e+00 3.399999999999999911e+00 3.410000000000000142e+00 3.419999999999999929e+00 3.430000000000000160e+00 3.439999999999999947e+00 3.450000000000000178e+00 3.459999999999999964e+00 3.470000000000000195e+00 3.479999999999999982e+00 3.490000000000000213e+00 3.500000000000000000e+00 3.509999999999999787e+00 3.520000000000000018e+00 3.529999999999999805e+00 3.540000000000000036e+00 3.549999999999999822e+00 3.560000000000000053e+00 3.569999999999999840e+00 3.580000000000000071e+00 3.589999999999999858e+00 3.600000000000000089e+00 3.609999999999999876e+00 3.620000000000000107e+00 3.629999999999999893e+00 3.640000000000000124e+00 3.649999999999999911e+00 3.660000000000000142e+00 3.669999999999999929e+00 3.680000000000000160e+00 3.689999999999999947e+00 3.700000000000000178e+00 3.709999999999999964e+00 3.720000000000000195e+00 3.729999999999999982e+00 3.740000000000000213e+00 3.750000000000000000e+00 3.759999999999999787e+00 3.770000000000000018e+00 3.779999999999999805e+00 3.790000000000000036e+00 3.799999999999999822e+00 3.810000000000000053e+00 3.819999999999999840e+00 3.830000000000000071e+00 3.839999999999999858e+00 3.850000000000000089e+00 3.859999999999999876e+00 3.870000000000000107e+00 3.879999999999999893e+00 3.890000000000000124e+00 3.899999999999999911e+00 3.910000000000000142e+00 3.919999999999999929e+00 3.930000000000000160e+00 3.939999999999999947e+00 3.950000000000000178e+00 3.959999999999999964e+00 3.970000000000000195e+00 3.979999999999999982e+00 3.990000000000000213e+00 4.000000000000000000e+00 4.009999999999999787e+00 4.019999999999999574e+00 4.030000000000000249e+00 4.040000000000000036e+00 4.049999999999999822e+00 4.059999999999999609e+00 4.070000000000000284e+00 4.080000000000000071e+00 4.089999999999999858e+00 4.099999999999999645e+00 4.110000000000000320e+00 4.120000000000000107e+00 4.129999999999999893e+00 4.139999999999999680e+00 4.150000000000000355e+00 4.160000000000000142e+00 4.169999999999999929e+00 4.179999999999999716e+00 4.190000000000000391e+00 4.200000000000000178e+00 4.209999999999999964e+00 4.219999999999999751e+00 4.230000000000000426e+00 4.240000000000000213e+00 4.250000000000000000e+00 4.259999999999999787e+00 4.269999999999999574e+00 4.280000000000000249e+00 4.290000000000000036e+00 4.299999999999999822e+00 4.309999999999999609e+00 4.320000000000000284e+00 4.330000000000000071e+00 4.339999999999999858e+00 4.349999999999999645e+00 4.360000000000000320e+00 4.370000000000000107e+00 4.379999999999999893e+00 4.389999999999999680e+00 4.400000000000000355e+00 4.410000000000000142e+00 4.419999999999999929e+00 4.429999999999999716e+00 4.440000000000000391e+00 4.450000000000000178e+00 4.459999999999999964e+00 4.469999999999999751e+00 4.480000000000000426e+00 4.490000000000000213e+00 4.500000000000000000e+00 4.509999999999999787e+00 4.519999999999999574e+00 4.530000000000000249e+00 4.540000000000000036e+00 4.549999999999999822e+00 4.559999999999999609e+00 4.570000000000000284e+00 4.580000000000000071e+00 4.589999999999999858e+00 4.599999999999999645e+00 4.610000000000000320e+00 4.620000000000000107e+00 4.629999999999999893e+00 4.639999999999999680e+00 4.650000000000000355e+00 4.660000000000000142e+00 4.669999999999999929e+00 4.679999999999999716e+00 4.690000000000000391e+00 4.700000000000000178e+00 4.709999999999999964e+00 4.719999999999999751e+00 4.730000000000000426e+00 4.740000000000000213e+00 4.750000000000000000e+00 4.759999999999999787e+00 4.769999999999999574e+00 4.780000000000000249e+00 4.790000000000000036e+00 4.799999999999999822e+00 4.809999999999999609e+00 4.820000000000000284e+00 4.830000000000000071e+00 4.839999999999999858e+00 4.849999999999999645e+00 4.860000000000000320e+00 4.870000000000000107e+00 4.879999999999999893e+00 4.889999999999999680e+00 4.900000000000000355e+00 4.910000000000000142e+00 4.919999999999999929e+00 4.929999999999999716e+00 4.940000000000000391e+00 4.950000000000000178e+00 4.959999999999999964e+00 4.969999999999999751e+00 4.980000000000000426e+00 4.990000000000000213e+00 5.000000000000000000e+00 5.009999999999999787e+00 5.019999999999999574e+00 5.030000000000000249e+00 5.040000000000000036e+00 5.049999999999999822e+00 5.059999999999999609e+00 5.070000000000000284e+00 5.080000000000000071e+00 5.089999999999999858e+00 5.099999999999999645e+00 5.110000000000000320e+00 5.120000000000000107e+00 5.129999999999999893e+00 5.139999999999999680e+00 5.150000000000000355e+00 5.160000000000000142e+00 5.169999999999999929e+00 5.179999999999999716e+00 5.190000000000000391e+00 5.200000000000000178e+00 5.209999999999999964e+00 5.219999999999999751e+00 5.230000000000000426e+00 5.240000000000000213e+00 5.250000000000000000e+00 5.259999999999999787e+00 5.269999999999999574e+00 5.280000000000000249e+00 5.290000000000000036e+00 5.299999999999999822e+00 5.309999999999999609e+00 5.320000000000000284e+00 5.330000000000000071e+00 5.339999999999999858e+00 5.349999999999999645e+00 5.360000000000000320e+00 5.370000000000000107e+00 5.379999999999999893e+00 5.389999999999999680e+00 5.400000000000000355e+00 5.410000000000000142e+00 5.419999999999999929e+00 5.429999999999999716e+00 5.440000000000000391e+00 5.450000000000000178e+00 5.459999999999999964e+00 5.469999999999999751e+00 5.480000000000000426e+00 5.490000000000000213e+00 5.500000000000000000e+00 5.509999999999999787e+00 5.519999999999999574e+00 5.530000000000000249e+00 5.540000000000000036e+00 5.549999999999999822e+00 5.559999999999999609e+00 5.570000000000000284e+00 5.580000000000000071e+00 5.589999999999999858e+00 5.599999999999999645e+00 5.610000000000000320e+00 5.620000000000000107e+00 5.629999999999999893e+00 5.639999999999999680e+00 5.650000000000000355e+00 5.660000000000000142e+00 5.669999999999999929e+00 5.679999999999999716e+00 5.690000000000000391e+00 5.700000000000000178e+00 5.709999999999999964e+00 5.719999999999999751e+00 5.730000000000000426e+00 5.740000000000000213e+00 5.750000000000000000e+00 5.759999999999999787e+00 5.769999999999999574e+00 5.780000000000000249e+00 5.790000000000000036e+00 5.799999999999999822e+00 5.809999999999999609e+00 5.820000000000000284e+00 5.830000000000000071e+00 5.839999999999999858e+00 5.849999999999999645e+00 5.860000000000000320e+00 5.870000000000000107e+00 5.879999999999999893e+00 5.889999999999999680e+00 5.900000000000000355e+00 5.910000000000000142e+00 5.919999999999999929e+00 5.929999999999999716e+00 5.940000000000000391e+00 5.950000000000000178e+00 5.959999999999999964e+00 5.969999999999999751e+00 5.980000000000000426e+00 5.990000000000000213e+00 6.000000000000000000e+00 6.009999999999999787e+00 6.019999999999999574e+00 6.030000000000000249e+00 6.040000000000000036e+00 6.049999999999999822e+00 6.059999999999999609e+00 6.070000000000000284e+00 6.080000000000000071e+00 6.089999999999999858e+00 6.099999999999999645e+00 6.110000000000000320e+00 6.120000000000000107e+00 6.129999999999999893e+00 6.139999999999999680e+00 6.150000000000000355e+00 6.160000000000000142e+00 6.169999999999999929e+00 6.179999999999999716e+00 6.190000000000000391e+00 6.200000000000000178e+00 6.209999999999999964e+00 6.219999999999999751e+00 6.230000000000000426e+00 6.240000000000000213e+00 6.250000000000000000e+00 6.259999999999999787e+00 6.269999999999999574e+00 6.280000000000000249e+00 6.290000000000000036e+00 6.299999999999999822e+00 6.309999999999999609e+00 6.320000000000000284e+00 6.330000000000000071e+00 6.339999999999999858e+00 6.349999999999999645e+00 6.360000000000000320e+00 6.370000000000000107e+00 6.379999999999999893e+00 6.389999999999999680e+00 6.400000000000000355e+00 6.410000000000000142e+00 6.419999999999999929e+00 6.429999999999999716e+00 6.440000000000000391e+00 6.450000000000000178e+00 6.459999999999999964e+00 6.469999999999999751e+00 6.480000000000000426e+00 6.490000000000000213e+00 6.500000000000000000e+00 6.509999999999999787e+00 6.519999999999999574e+00 6.530000000000000249e+00 6.540000000000000036e+00 6.549999999999999822e+00 6.559999999999999609e+00 6.570000000000000284e+00 6.580000000000000071e+00 6.589999999999999858e+00 6.599999999999999645e+00 6.610000000000000320e+00 6.620000000000000107e+00 6.629999999999999893e+00 6.639999999999999680e+00 6.650000000000000355e+00 6.660000000000000142e+00 6.669999999999999929e+00 6.679999999999999716e+00 6.690000000000000391e+00 6.700000000000000178e+00 6.709999999999999964e+00 6.719999999999999751e+00 6.730000000000000426e+00 6.740000000000000213e+00 6.750000000000000000e+00 6.759999999999999787e+00 6.769999999999999574e+00 6.780000000000000249e+00 6.790000000000000036e+00 6.799999999999999822e+00 6.809999999999999609e+00 6.820000000000000284e+00 6.830000000000000071e+00 6.839999999999999858e+00 6.849999999999999645e+00 6.860000000000000320e+00 6.870000000000000107e+00 6.879999999999999893e+00 6.889999999999999680e+00 6.900000000000000355e+00 6.910000000000000142e+00 6.919999999999999929e+00 6.929999999999999716e+00 6.940000000000000391e+00 6.950000000000000178e+00 6.959999999999999964e+00 6.969999999999999751e+00 6.980000000000000426e+00 6.990000000000000213e+00 7.000000000000000000e+00 7.009999999999999787e+00 7.019999999999999574e+00 7.030000000000000249e+00 7.040000000000000036e+00 7.049999999999999822e+00 7.059999999999999609e+00 7.070000000000000284e+00 7.080000000000000071e+00 7.089999999999999858e+00 7.099999999999999645e+00 7.110000000000000320e+00 7.120000000000000107e+00 7.129999999999999893e+00 7.139999999999999680e+00 7.150000000000000355e+00 7.160000000000000142e+00 7.169999999999999929e+00 7.179999999999999716e+00 7.190000000000000391e+00 7.200000000000000178e+00 7.209999999999999964e+00 7.219999999999999751e+00 7.230000000000000426e+00 7.240000000000000213e+00 7.250000000000000000e+00 7.259999999999999787e+00 7.269999999999999574e+00 7.280000000000000249e+00 7.290000000000000036e+00 7.299999999999999822e+00 7.309999999999999609e+00 7.320000000000000284e+00 7.330000000000000071e+00 7.339999999999999858e+00 7.349999999999999645e+00 7.360000000000000320e+00 7.370000000000000107e+00 7.379999999999999893e+00 7.389999999999999680e+00 7.400000000000000355e+00 7.410000000000000142e+00 7.419999999999999929e+00 7.429999999999999716e+00 7.440000000000000391e+00 7.450000000000000178e+00 7.459999999999999964e+00 7.469999999999999751e+00 7.480000000000000426e+00 7.490000000000000213e+00 7.500000000000000000e+00 7.509999999999999787e+00 7.519999999999999574e+00 7.530000000000000249e+00 7.540000000000000036e+00 7.549999999999999822e+00 7.559999999999999609e+00 7.570000000000000284e+00 7.580000000000000071e+00 7.589999999999999858e+00 7.599999999999999645e+00 7.610000000000000320e+00 7.620000000000000107e+00 7.629999999999999893e+00 7.639999999999999680e+00 7.650000000000000355e+00 7.660000000000000142e+00 7.669999999999999929e+00 7.679999999999999716e+00 7.690000000000000391e+00 7.700000000000000178e+00 7.709999999999999964e+00 7.719999999999999751e+00 7.730000000000000426e+00 7.740000000000000213e+00 7.750000000000000000e+00 7.759999999999999787e+00 7.769999999999999574e+00 7.780000000000000249e+00 7.790000000000000036e+00 7.799999999999999822e+00 7.809999999999999609e+00 7.820000000000000284e+00 7.830000000000000071e+00 7.839999999999999858e+00 7.849999999999999645e+00 7.860000000000000320e+00 7.870000000000000107e+00 7.879999999999999893e+00 7.889999999999999680e+00 7.900000000000000355e+00 7.910000000000000142e+00 7.919999999999999929e+00 7.929999999999999716e+00 7.940000000000000391e+00 7.950000000000000178e+00 7.959999999999999964e+00 7.969999999999999751e+00 7.980000000000000426e+00 7.990000000000000213e+00 8.000000000000000000e+00 8.009999999999999787e+00 8.019999999999999574e+00 8.029999999999999361e+00 8.039999999999999147e+00 8.050000000000000711e+00 8.060000000000000497e+00 8.070000000000000284e+00 8.080000000000000071e+00 8.089999999999999858e+00 8.099999999999999645e+00 8.109999999999999432e+00 8.119999999999999218e+00 8.130000000000000782e+00 8.140000000000000568e+00 8.150000000000000355e+00 8.160000000000000142e+00 8.169999999999999929e+00 8.179999999999999716e+00 8.189999999999999503e+00 8.199999999999999289e+00 8.210000000000000853e+00 8.220000000000000639e+00 8.230000000000000426e+00 8.240000000000000213e+00 8.250000000000000000e+00 8.259999999999999787e+00 8.269999999999999574e+00 8.279999999999999361e+00 8.289999999999999147e+00 8.300000000000000711e+00 8.310000000000000497e+00 8.320000000000000284e+00 8.330000000000000071e+00 8.339999999999999858e+00 8.349999999999999645e+00 8.359999999999999432e+00 8.369999999999999218e+00 8.380000000000000782e+00 8.390000000000000568e+00 8.400000000000000355e+00 8.410000000000000142e+00 8.419999999999999929e+00 8.429999999999999716e+00 8.439999999999999503e+00 8.449999999999999289e+00 8.460000000000000853e+00 8.470000000000000639e+00 8.480000000000000426e+00 8.490000000000000213e+00 8.500000000000000000e+00 8.509999999999999787e+00 8.519999999999999574e+00 8.529999999999999361e+00 8.539999999999999147e+00 8.550000000000000711e+00 8.560000000000000497e+00 8.570000000000000284e+00 8.580000000000000071e+00 8.589999999999999858e+00 8.599999999999999645e+00 8.609999999999999432e+00 8.619999999999999218e+00 8.630000000000000782e+00 8.640000000000000568e+00 8.650000000000000355e+00 8.660000000000000142e+00 8.669999999999999929e+00 8.679999999999999716e+00 8.689999999999999503e+00 8.699999999999999289e+00 8.710000000000000853e+00 8.720000000000000639e+00 8.730000000000000426e+00 8.740000000000000213e+00 8.750000000000000000e+00 8.759999999999999787e+00 8.769999999999999574e+00 8.779999999999999361e+00 8.789999999999999147e+00 8.800000000000000711e+00 8.810000000000000497e+00 8.820000000000000284e+00 8.830000000000000071e+00 8.839999999999999858e+00 8.849999999999999645e+00 8.859999999999999432e+00 8.869999999999999218e+00 8.880000000000000782e+00 8.890000000000000568e+00 8.900000000000000355e+00 8.910000000000000142e+00 8.919999999999999929e+00 8.929999999999999716e+00 8.939999999999999503e+00 8.949999999999999289e+00 8.960000000000000853e+00 8.970000000000000639e+00 8.980000000000000426e+00 8.990000000000000213e+00 9.000000000000000000e+00 9.009999999999999787e+00 9.019999999999999574e+00 9.029999999999999361e+00 9.039999999999999147e+00 9.050000000000000711e+00 9.060000000000000497e+00 9.070000000000000284e+00 9.080000000000000071e+00 9.089999999999999858e+00 9.099999999999999645e+00 9.109999999999999432e+00 9.119999999999999218e+00 9.130000000000000782e+00 9.140000000000000568e+00 9.150000000000000355e+00 9.160000000000000142e+00 9.169999999999999929e+00 9.179999999999999716e+00 9.189999999999999503e+00 9.199999999999999289e+00 9.210000000000000853e+00 9.220000000000000639e+00 9.230000000000000426e+00 9.240000000000000213e+00 9.250000000000000000e+00 9.259999999999999787e+00 9.269999999999999574e+00 9.279999999999999361e+00 9.289999999999999147e+00 9.300000000000000711e+00 9.310000000000000497e+00 9.320000000000000284e+00 9.330000000000000071e+00 9.339999999999999858e+00 9.349999999999999645e+00 9.359999999999999432e+00 9.369999999999999218e+00 9.380000000000000782e+00 9.390000000000000568e+00 9.400000000000000355e+00 9.410000000000000142e+00 9.419999999999999929e+00 9.429999999999999716e+00 9.439999999999999503e+00 9.449999999999999289e+00 9.460000000000000853e+00 9.470000000000000639e+00 9.480000000000000426e+00 9.490000000000000213e+00 9.500000000000000000e+00 9.509999999999999787e+00 9.519999999999999574e+00 9.529999999999999361e+00 9.539999999999999147e+00 9.550000000000000711e+00 9.560000000000000497e+00 9.570000000000000284e+00 9.580000000000000071e+00 9.589999999999999858e+00 9.599999999999999645e+00 9.609999999999999432e+00 9.619999999999999218e+00 9.630000000000000782e+00 9.640000000000000568e+00 9.650000000000000355e+00 9.660000000000000142e+00 9.669999999999999929e+00 9.679999999999999716e+00 9.689999999999999503e+00 9.699999999999999289e+00 9.710000000000000853e+00 9.720000000000000639e+00 9.730000000000000426e+00 9.740000000000000213e+00 9.750000000000000000e+00 9.759999999999999787e+00 9.769999999999999574e+00 9.779999999999999361e+00 9.789999999999999147e+00 9.800000000000000711e+00 9.810000000000000497e+00 9.820000000000000284e+00 9.830000000000000071e+00 9.839999999999999858e+00 9.849999999999999645e+00 9.859999999999999432e+00 9.869999999999999218e+00 9.880000000000000782e+00 9.890000000000000568e+00 9.900000000000000355e+00 9.910000000000000142e+00 9.919999999999999929e+00 9.929999999999999716e+00 9.939999999999999503e+00 9.949999999999999289e+00 9.960000000000000853e+00 9.970000000000000639e+00 9.980000000000000426e+00 9.990000000000000213e+00
2.751339382815785883e-02 -2.202266456634333763e-02 -9.697468537049644399e-02 -1.510724439614932746e-01 -1.611163985008352006e-01 -1.629829491824102694e-01 -1.011608680423660145e-01 1.017721640614263345e-01 5.524020816093230257e-01 8.986984116691019153e-01 4.935520081892491584e-01 -5.655845247663910946e-01 -6.801757606515730359e-01 -4.175252252536438280e-01 -2.728630241925293354e-01 -2.296564531407011556e-01 -2.026285570623918009e-01 -1.804135832735960232e-01 -1.459157643593425868e-01 -1.227980647931212893e-01 -7.489671365632830091e-02 -5.828946084505560316e-02 -1.472356597871566893e-03 5.739364242539977956e-02 1.490684412868336084e-01 2.581336505916556057e-01 3.940170519861203591e-01 4.889131811732068122e-01 5.648450640813235113e-01 5.649393922394483347e-01 5.155641849589278625e-01 3.828821469576610403e-01 2.361496855649693472e-01 6.842510909695193044e-02 -5.618655838997255875e-02 -1.587074633467227547e-01 -1.975805368685519259e-01 -2.103206762278659880e-01 -1.999076752738574159e-01 -2.155219486602845957e-01 -1.958474720479534970e-01 -1.850111258763445232e-01 -1.588493732601409802e-01 -1.481662805477026168e-01 -1.251694749515081528e-01 -1.104998639939640259e-01 -6.732652745465657340e-02 -5.528708811802061918e-02 -4.035716628364752895e-02 -5.025291771883985681e-02 -2.188910474219937785e-02 5.588489190876316792e-02 1.187087380682442100e-01 1.157662319832161307e-01 4.832653396986188316e-02 -3.905739747697680592e-02 -4.616878696556341727e-02 -6.675869288260401213e-02 -7.633349542125870968e-02 -7.739635216081751368e-02 -4.877196536645442282e-02 -5.760499810229248452e-02 -4.355016404287198606e-02 -6.036692488436983667e-02 -6.806197214982603882e-02 -9.084836915212235464e-02 -6.335142859282313910e-02 -6.196886187956807124e-02 -5.189724464995833925e-02 -7.061811187783860466e-02 -6.965910369814082292e-02 -7.430837418750797785e-02 -6.026896630675764727e-02 -6.214574698532942393e-02 -1.329111307276889531e-02 9.577791602292563822e-02 4.546060476701336839e-01 8.976665134448399419e-01 9.204658544375001750e-01 -1.231709398299881270e-01 -6.978667653970296314e-01 -5.261233196127659273e-01 -3.437661620163589560e-01 -2.774842713168936825e-01 -2.626312786160360790e-01 -2.847582243769102295e-01 -2.756978072016886272e-01 -2.692737847146349783e-01 -2.436697511225565937e-01 -2.081343291003372453e-01 -1.352640684582297748e-01 -7.909433151524354610e-02 1.828594710744482765e-02 1.372307370453927367e-01 2.772266243021749843e-01 4.329890995940377518e-01 5.872722959733414072e-01 6.114196529673131542e-01 5.708362623156107984e-01 4.813457131905238273e-01 3.880484016126706792e-01 2.478766917232042011e-01 1.188683147984670591e-01 6.927693817547151897e-03 -2.775179822790960205e-02 -6.867262232220128215e-02 -1.234790617238650245e-01 -2.318229379698141246e-01 -2.516332385423038498e-01 -2.199041858879672851e-01 -1.749409535805443727e-01 -1.481033943215516180e-01 -8.118363980649746792e-02 -6.568235058622576283e-02 -4.532158834231040517e-02 -4.081078040698457587e-02 -3.588029363017767454e-02 -5.188826856969853962e-02 -4.159131963646814367e-02 -2.538231284017001751e-02 1.313720341878934009e-02 -2.487756095570148405e-03 -1.224870883133007821e-02 -4.271175600547394424e-02 -4.808933486314345002e-02 -4.757679621880470111e-02 -3.401556485654964879e-02 -1.556580637359729694e-02 7.621949560010307656e-02 1.088010053516495629e-01 1.241868445328918880e-01 1.127665409752398734e-01 1.013496634810371749e-01 1.239683629946739495e-02 -9.567429647350308985e-02 -1.531275345179051450e-01 -1.651707379184517710e-01 -2.224719909467421652e-01 -2.404678149065034576e-01 -2.375861570634197062e-01 -2.142251412995574422e-01 -1.827280448266697110e-01 -7.643892706068754206e-02 -3.678956032996666403e-02 2.407622415070818575e-02 2.339221562324655668e-01 7.069298778439884190e-01 1.131401288492256851e+00 7.109314344232234850e-01 -4.246828126773039003e-01 -6.280196851861364893e-01 -4.247527520666244394e-01 -2.546749019640924261e-01 -1.995778161768385073e-01 -1.679586304883446402e-01 -1.631893403763138017e-01 -1.478056136988220859e-01 -1.428281667292617407e-01 -1.275849095759713225e-01 -9.779197096032476999e-02 -1.936760162503333230e-02 4.249650011972107982e-02 1.498343707869617125e-01 2.562924222792912765e-01 3.775522519042078806e-01 4.623419591392439743e-01 4.773580994123517440e-01 3.871402770660961612e-01 3.433109403773869639e-01 3.331705697921643061e-01 2.859751772945673953e-01 1.568676794143243625e-01 4.969715549350894879e-02 -2.832212982679720853e-02 -5.296635221554197442e-02 -1.029340366486962977e-01 -1.788105003017699257e-01 -2.303316668714296689e-01 -2.015853000680272178e-01 -1.735302105492610436e-01 -1.399176289621891500e-01 -1.434481947939411917e-01 -1.182103821357577550e-01 -1.006812877187485411e-01 -7.541652323898688504e-02 -7.415542445796291515e-02 -6.496201195737739964e-02 -6.857828490065003002e-02 -5.288033591094972591e-02 -5.928925981335851636e-02 -4.923779681016639959e-02 -5.601717391642069277e-02 -4.679840140178839758e-02 -5.206810767532260575e-02 -5.518396841488993482e-02 -6.839068331282760482e-02 -4.606827372297630369e-02 -3.972345478161060095e-02 -2.751505701710357452e-02 -4.478664022351040719e-02 -6.662202083797183483e-02 -9.477552417101833826e-02 -9.258685483400767857e-02 -1.203461558184244495e-01 -1.158251280664944760e-01 -1.141307913041828270e-01 -1.066985338846416220e-01 -1.278305077798540801e-01 -1.059580222500744601e-01 -9.837549207218217184e-02 -1.499691716881898160e-02 1.893371697368615991e-01 6.626480579675262383e-01 1.145272893417686566e+00 8.359757124808788742e-01 -2.818012430853877870e-01 -5.957825756126976513e-01 -4.363930203925997509e-01 -2.595049148818657225e-01 -1.973313697207481621e-01 -1.728151629319882032e-01 -1.946698242823186042e-01 -1.914904067927341302e-01 -1.985471287842074106e-01 -1.592795921370975532e-01 -1.141164525367730637e-01 -4.724776291783427951e-02 -3.016125594774621190e-03 9.655357437194198034e-02 1.880108106397824497e-01 2.890722613115508377e-01 3.477264077273594101e-01 3.967376010127713903e-01 4.049926964736982882e-01 3.985847743013550826e-01 3.067765016362659636e-01 1.938142221223529416e-01 6.940991894060971612e-02 1.204921838564132486e-03 -6.388291979910945551e-02 -8.268318273336490443e-02 -1.074902878437956205e-01 -1.077434525726425896e-01 -1.311521688148764020e-01 -1.152827987727550879e-01 -1.254352335989096789e-01 -1.034073450100800040e-01 -1.140751235153470572e-01 -1.046667527970998879e-01 -1.081857329394892986e-01 -9.963313503184735576e-02 -1.093928454673141482e-01 -1.183944788144935950e-01 -1.383447091065636569e-01 -1.163486448467301732e-01 -1.329473500901622307e-01 -1.137788720711637308e-01 -4.035675554436693457e-02 5.995643285875530692e-02 7.982874858437526144e-02 6.961297384499175178e-02 4.089585555365601865e-02 3.931927824383365383e-02 1.795652971740082857e-02 1.063921879678218774e-02 -1.661093127654567070e-02 -1.329877255479232183e-02 -3.430981635821126613e-02 -4.646020253674805478e-02 -8.488605591482155377e-02 -8.475183819082530989e-02 -8.597936137622128050e-02 -6.755540879692262246e-02 -6.817697717312284911e-02 4.352302470501626802e-02 3.502500456176062538e-01 8.368184346186672284e-01 1.099618701598189974e+00 3.919398059145669522e-01 -5.709719078753346944e-01 -6.318672618760502457e-01 -4.503577188844269941e-01 -3.202565190839004594e-01 -2.754493077617508057e-01 -2.345195987104944091e-01 -2.189812963057193029e-01 -1.961032607537299688e-01 -1.897202943259048979e-01 -1.538049614125998332e-01 -1.324066009300986502e-01 -7.474767490982912876e-02 -6.257456157759406883e-03 1.156432220201259048e-01 2.211921428275150092e-01 3.289991049779223409e-01 4.551897044708335116e-01 5.918370198379239167e-01 6.000154036431649685e-01 5.628815406935291366e-01 4.351114799450988557e-01 2.962376416391339085e-01 1.141089235474828517e-01 -6.559134653720093133e-02 -1.704500810370564168e-01 -1.911648211268175135e-01 -1.968288447960253595e-01 -1.825222498975358487e-01 -1.825189651658706835e-01 -1.531886756894982604e-01 -1.535971989065410548e-01 -1.283273760540714625e-01 -1.071387694305485638e-01 -8.117676274651558499e-02 -7.306624728212228470e-02 -4.480123913794386431e-02 -5.064288891950127769e-02 -3.166314048722142921e-02 -2.072540077751000229e-02 1.420453810674189360e-03 -2.583265974176811308e-02 -2.592615896071038054e-02 -3.223739159479919320e-02 -1.131812764654569099e-02 -5.379399250837195619e-03 -3.988985497153407431e-03 -2.569435096246706907e-02 -3.590272176079452315e-02 -7.651895262149537025e-02 -7.770418898387106144e-02 -9.030900479438060124e-02 -9.100732253393289950e-02 -1.101541298308302413e-01 -1.169408045773388943e-01 -1.430356834343092520e-01 -1.454536045224676943e-01 -1.468279031418774083e-01 -1.127401395426500114e-01 -5.525564583478853597e-02 1.721159341512316088e-01 5.713877934934544767e-01 9.417881363021547436e-01 6.864854543686692567e-01 -3.011669260789972546e-01 -6.203147619322066930e-01 -4.296738474875496649e-01 -3.030010064100338574e-01 -2.519240253108523397e-01 -2.572292187733069002e-01 -2.440934039078888340e-01 -2.378718700686272280e-01 -2.046398945518399237e-01 -2.011439871041943717e-01 -1.772421928620542542e-01 -9.734727820846955648e-02 6.531147348385957230e-02 1.902096508470071945e-01 3.384586472292949177e-01 4.547722882564562696e-01 5.762655903008817582e-01 6.293329358954838915e-01 6.552089025227724184e-01 5.964609603460939713e-01 4.514829620776049657e-01 1.949073425453752839e-01 1.679344114952073183e-02 -9.636970107889965276e-02 -1.547821501183625492e-01 -2.160404668388901106e-01 -2.207134744673840132e-01 -2.194917304927571367e-01 -1.950627419098464044e-01 -1.978616525715210794e-01 -1.607311964711493624e-01 -1.417193707075489473e-01 -1.121842739847784265e-01 -1.103830655891260976e-01 -8.704646837667724679e-02 -8.239243376360264048e-02 -5.634021910159162788e-02 -5.210118696165864233e-02 -3.754932559176040602e-02 -6.574384904847192790e-02 -7.125130672385694697e-02 -8.442333457752283776e-02 -7.395303716989019838e-02 -7.694608570343007548e-02 4.210532473032344535e-03 7.287091684125471258e-02 9.150300467777924829e-02 6.106044357599103162e-02 6.040942069675338949e-02 4.585541454483063606e-02 6.768392513739628080e-02 5.444948112819020247e-02 2.855626213090090362e-02 -2.311451766266827898e-02 -4.658015631404168605e-02 -7.850273298167849412e-02 -7.843683530751605071e-02 -1.632175881507896553e-01 -2.098304166408843374e-01 -1.373444444769984230e-01 1.827864889782563340e-01 6.384664590608235546e-01 9.114947869861089735e-01 1.516810329536883717e-01 -7.184581123410930248e-01 -6.488733955683687604e-01 -3.936502269357197159e-01 -2.858310098486390727e-01 -2.366975962433753022e-01 -2.265934847299763688e-01 -2.028864947221086512e-01 -1.903579183939154984e-01 -1.110434626562346316e-01 -1.347521318210738277e-02 1.595195871263740614e-02 4.054741617829904499e-02 1.286184144334970303e-01 2.199499763115363715e-01 3.469583620017533399e-01 4.372160879656348809e-01 5.152784975086638353e-01 5.204179013711405233e-01 5.089956708298086774e-01 4.151862484262756059e-01 2.854052932417948663e-01 1.166970545360868500e-01 2.277858997133535256e-03 -1.014574740569651190e-01 -1.588555895297963649e-01 -2.037396728731346307e-01 -1.972757050784298416e-01 -2.011100091842604465e-01 -1.707641640907127112e-01 -1.571174131092584469e-01 -1.215999891613205458e-01 -1.075651536689042620e-01 -6.850594925584800599e-02 -4.339421314069113328e-02 -4.713768092315149573e-03 -7.226771675423151325e-03 6.499738602947217891e-03 2.611312945477948285e-03 1.775986343739987400e-02 5.466552770428734220e-03 1.261634477704319524e-02 -1.271382525454100784e-02 -1.616765625206880927e-02 -4.198298229833199308e-02 -3.712922261192034418e-02 -5.242564028123979786e-02 -4.478766742764946768e-02 -4.936163784167092727e-02 -4.834523482429403662e-02 -7.437215899291231558e-02 -5.800304787419009039e-02 -5.956160343892634434e-02 -5.422659662054912094e-02 -6.952871067123851667e-02 -4.375542507762020250e-02 -4.563173013735877248e-02 -5.044303458018475905e-02 -7.952453312672105867e-02 -7.815933832524933622e-02 -9.669796355052312498e-02 -9.007230071353661272e-02 -1.141211138518542639e-01 -8.989820051484002927e-02 1.006889742843441148e-02 3.485727884432890389e-01 8.057804365083484077e-01 9.722195241400982679e-01 4.351374975729868644e-02 -6.390843235928923560e-01 -5.114753895622539126e-01 -3.017310993098885619e-01 -2.291874782686022793e-01 -1.951621830008798408e-01 -2.105267395503028771e-01 -1.939832622454059630e-01 -1.875096659699101997e-01 -1.614031560516991648e-01 -1.427213448299994580e-01 -7.516417422076074328e-02 -2.911466394932631443e-03 1.038664133762063069e-01 1.912132157245696462e-01 3.066010690051416687e-01 3.971673796659752065e-01 4.865096265280931531e-01 5.163982768678488933e-01 4.996741349711896762e-01 4.288756016255820258e-01 3.277413511538930235e-01 1.702130173500154275e-01 4.375347589918646835e-02 -7.140628934103687708e-02 -1.334088664920272949e-01 -1.894385833495380311e-01 -2.042313289076787552e-01 -2.324296439921658963e-01 -2.216080209315509919e-01 -2.008961902713031211e-01 -1.613510404072394655e-01 -1.523623274131137018e-01 -1.307388487164371227e-01 -1.245216020684415531e-01 -9.838552463100769252e-02 -8.503024960468109905e-02 1.383486527656486997e-02 7.391866427603417666e-02 8.929422280220251917e-02 7.102745212124773888e-02 7.181207793662224004e-02 4.181367446202330362e-02 3.839933846984650012e-02 3.382695339608972340e-02 6.579377271387784609e-02 7.614588176743609937e-02 9.092567090091961679e-02 5.880994767585434602e-02 6.137031362314701588e-02 5.666873329826785377e-02 4.825810705577623927e-02 3.692384865072881328e-02 5.416407971308672548e-02 4.360916004090768100e-02 2.066703687629797143e-02 -8.178386698650001729e-02 -1.245310566680586789e-01 -1.434617827619467934e-01 -1.225804972062019271e-01 -1.368097764440949493e-01 -1.404154957415130467e-01 -1.553918896180721265e-01 -1.526819565183404892e-01 -1.782087153125394285e-01 -1.626877880404026810e-01 -1.484814055885635697e-01 -1.204640572753942346e-01 -1.344291655859637946e-01 -1.120798539136126232e-01 -7.871330968347138579e-02 9.468056003155425615e-02 5.232465465206973532e-01 1.067708720151531399e+00 8.908425343150202513e-01 -2.132662961995424600e-01 -6.237080796887380929e-01 -4.451374225962240749e-01 -2.863727108136959187e-01 -2.125100598868562007e-01 -2.167037975407515582e-01 -1.806884688856553178e-01 -1.554117932278836767e-01 -1.475300702156141508e-01 -1.475458472744412552e-01 -9.830830484936314839e-02 -2.997143949110295594e-02 4.757937926571458032e-02 7.076060324732452722e-02 1.581708312118871584e-01 2.510101266080573823e-01 3.548422900265745805e-01 4.128892950558792907e-01 4.450888636910849683e-01 3.870864053318837095e-01 3.161518118615959105e-01 1.993270620858061115e-01 8.452773994092922794e-02 -1.665897778526186784e-02 -6.160376504609303000e-02 -1.166591799250727562e-01 -1.519603787466803635e-01 -1.880529372766591156e-01 -1.734928419256016319e-01 -1.372199606008712158e-01 -1.991136518729490559e-02 5.226528783525281885e-02 9.041448230061632785e-02 8.141151203110440215e-02 7.064895735963773460e-02 4.724794190328111820e-02 3.160782077201929746e-02 -5.143141055780233589e-02 -7.206503297616563553e-02 -7.319568263794280771e-02 -5.587050639284825426e-02 -6.866099870965626517e-02 -4.614773158737534714e-02 -4.607758329807438991e-02 -3.810590691761262666e-02 -6.557399349238039743e-02 -7.038908649446057320e-02 -8.152298330966459283e-02 -7.514444773578816961e-02 -8.719629628813437006e-02 -6.217235884942965557e-02 -6.553595890055931295e-02 -6.281066132119576817e-02 -9.789883004873900507e-02 -5.901657613134375646e-02 -1.559865988814181093e-02 -3.929060075894995341e-02 -1.089112353467362460e-01 -1.336551111711969664e-01 -1.349570065070656855e-01 -5.143583117138405408e-02 -2.249661659236153535e-02 -7.845569955952669608e-03 -1.435504759228479164e-02 3.376562205386107740e-02 1.322784947863283322e-01 4.742041387305698796e-01 9.340973165233800168e-01 9.968577612476496874e-01 3.575616156126670830e-03 -7.077344267162197777e-01 -6.177571223872564410e-01 -4.033054707095288793e-01 -3.097904737730959868e-01 -2.569780092604651012e-01 -2.353363300437331385e-01 -1.942437162440319443e-01 -1.716140693996658362e-01 -1.229960058622714403e-01 -9.998101468055893559e-02 -4.224093897499187761e-02 4.917738600586290393e-03 9.033122294787744588e-02 1.795485390105091006e-01 3.022667676588616792e-01 3.850899357546836987e-01 4.537134113885236131e-01 4.837421872317213545e-01 4.760339342565385046e-01 3.844356516680409452e-01 2.648706805302185607e-01 1.066719881298308775e-01 -7.539136990549195720e-03 -1.044636709328415208e-01 -1.402327454558735531e-01 -1.661809143994287252e-01 -1.586900087460753617e-01 -1.664948869814861510e-01 -1.588106244923074006e-01 -1.620936896428293028e-01 -1.297721189289723076e-01 -1.190433839373508801e-01 -9.147856882399083012e-02 -8.354095248563225828e-02 -6.265566866624794340e-02 -7.131273180094467590e-02 -4.193643307359707501e-02 -2.112033453329331678e-02 -3.967636459556160566e-03 -2.256480290514446124e-02 -2.560036581984150017e-02 -3.999471230497420038e-02 -1.827804726343856476e-02 -3.090876884557474183e-02 -2.789669095157478254e-02 -3.845315032595408161e-02 -1.294489093853826503e-02 2.990444798160751989e-03 1.411306408242126061e-02 -5.777743687040128896e-03 -8.323260383303932074e-04 -1.727624277506947803e-02 -1.591442283647211478e-02 -2.180943261479569711e-02 -1.335419744450518954e-02 -3.607647890148655417e-02 -2.307397564416078378e-02 -2.160858709853528264e-02 -1.215728594014763020e-02 -4.146848357534054647e-02 -4.857330446758623826e-02 -7.039894274476410363e-02 -6.563117458342276889e-02 -8.192635999844243011e-02 -7.137095513886379528e-02 -5.064248379761011193e-02 1.199580501212176437e-01 4.992797245196743394e-01 9.060655272386634040e-01 7.457480300356451597e-01 -2.773704370670247998e-01 -6.741973249535886392e-01 -4.332599164345674603e-01 -2.724804345728716881e-01 -2.061333379106417840e-01 -2.218367715758950143e-01 -1.977376211679529594e-01 -1.906557259928513270e-01 -1.746061110662708582e-01 -1.620795187635667434e-01 -1.169112949791428907e-01 -8.298444392720739915e-02 -1.060631652836946208e-02 6.233526570416643431e-02 1.831010307566566520e-01 3.067151228035459032e-01 4.136033819146564539e-01 4.647411321269714901e-01 5.130277109016969650e-01 4.932982993778295966e-01 4.290822741403280682e-01 2.805478830805714363e-01 1.422511237242815862e-01 2.154396306742683079e-02 -4.643030095528501849e-02 -1.193752340400760642e-01 -1.604672429909442255e-01 -1.798219054783476156e-01 -1.605291782480298968e-01 -1.595240523813163391e-01 -1.471920438225015615e-01 -1.514705045863775079e-01 -1.302108195576511251e-01 -1.301286911022225545e-01 -1.069246385118276521e-01 -1.009608518235427244e-01 -7.404674196306132439e-02 -8.293600155276180386e-02 -7.494392922029874393e-02 -6.752126415869952325e-02 -4.179511536772679420e-02 -3.434011683988956454e-02 -6.607255234985132293e-03 -7.091948708880409062e-03 4.516590937978435388e-03 -4.222039007331659065e-03 2.997088916026768943e-03 -1.906690016085122060e-04 1.736184864453662116e-02 1.206913642470226582e-02 2.911898478284001557e-02 1.940999416623526500e-02 2.832998091691934020e-02 -3.508996877703794096e-03 -2.081276166597490276e-02 -5.546160784519088560e-02 -5.795867051285313182e-02 -7.017680805704913649e-02 -7.116152673152555119e-02 -9.573915879985180066e-02 -8.928341923168772731e-02 -9.996800529263509538e-02 -8.910789559917248193e-02 -1.022146163873867419e-01 -1.027337509174867658e-01 -6.534047618468320773e-02 1.691734224143510712e-01 5.877745875804134545e-01 9.412001685392397121e-01 5.129292573484849349e-01 -5.054171107467254620e-01 -6.611488983207869374e-01 -4.022225239647332362e-01 -2.690875723891463234e-01 -1.991167847127940094e-01 -1.877269244568310624e-01 -1.685495280277837238e-01 -1.695322806559556861e-01 -1.343780734401593679e-01 -1.127457966840415826e-01 -5.948523973525653152e-02 -1.006300588008343828e-02 6.892194718813698939e-02 1.383486184950743492e-01 2.442222599441788711e-01 3.546117902871946947e-01 4.693554361457245583e-01 5.176603573285819548e-01 5.379104203722999689e-01 4.826489990706954725e-01 3.784847891350909821e-01 2.231867482372058564e-01 9.210110415787539639e-02 -4.255235759316519650e-02 -1.357016136931906702e-01 -2.007099885443062726e-01 -1.946527043444166438e-01 -1.839574432202402965e-01 -1.530666353192123019e-01 -1.451206881204234467e-01 -1.229008843671931667e-01 -1.236910433877665139e-01 -9.391486077755190065e-02 -8.074072822660582904e-02 -5.608771956827240945e-02 -5.287766380086395684e-02 -2.735271775264209310e-02 -2.655141304510380204e-02 -7.303305354325857236e-03 -1.596995891341521090e-02 -1.517373484190557079e-02 -3.208944639851779579e-02 -1.516361060530925856e-02 -1.284552242707832220e-02 4.389984979802648291e-03 -3.694364947891699488e-03 8.693551902892978148e-03 -8.439180084064901860e-03 -1.369276442950194926e-02 -4.229624247164338186e-02 -2.733762717475201470e-02 -2.606517977447310799e-02 -2.761847482700431969e-02 -4.301191904667575616e-02 -3.859373891023096942e-02 -6.321387948591564165e-02 -7.543226846039488565e-02 -9.004468839101263666e-02 -6.627877561309106214e-02 -6.721994400791572732e-02 -6.696568188727723692e-02 -9.607412835016930497e-02 -9.759083858394661248e-02 -1.114111494507642464e-01 -1.018351392059048538e-01 -9.909941941905799079e-02 -3.419864261301881758e-02 1.433502075953947408e-01 5.720370999949045965e-01 9.677816451379067653e-01 6.760868145666631968e-01 -3.877582487135532441e-01 -6.218344940389193276e-01 -4.054063851570868238e-01 -2.615199396047523939e-01 -2.221445048835221370e-01 -1.928358674300125197e-01 -1.984710892049179332e-01 -1.797784322721236172e-01 -1.727781015909158613e-01 -1.477122670703397422e-01 -1.398551131688827720e-01 -8.508501266112944439e-02 -1.697442910354766271e-02 9.161866906632440410e-02 1.925012391905488729e-01 3.164198505877425238e-01 3.976736001291533151e-01 4.627517737526318231e-01 4.637771005655463297e-01 4.253490172555712268e-01 3.019338359590187926e-01 1.666133992209961334e-01 2.159358704931037265e-02 -6.301979936575889674e-02 -7.257291313014548051e-02 -4.055864393556248698e-02 -4.920866813288057862e-02 -5.270814592079432065e-02 -6.604089666622940669e-02 -5.771254769871575485e-02 -6.511879252417429598e-02 -3.931446702443281566e-02 -3.383317588358068090e-02 -1.424161179428438083e-02 -1.405566003819330896e-02 6.620761340741410095e-03 4.467981080522349414e-03 -3.732265060305962889e-02 -1.276273217981611086e-01 -1.199988152735682045e-01 -4.637126285417480370e-02 1.547516221140767846e-02 2.489271476050589765e-02 4.129822194411190278e-02 3.470674452374396257e-02 4.652060604780672293e-02 3.686720782924340217e-02 5.478052241851628229e-02 4.982240221785787238e-02 2.061227691463500544e-02 -6.489733615643900055e-02 -7.615766725746425658e-02 -8.291747912888013106e-02 -7.134700086853400236e-02 -7.448195930821839561e-02 -5.529486212283472868e-02 -6.734463906990185988e-02 -7.272933994970799676e-02 -9.407557338492097965e-02 -7.658030035904858646e-02 -8.633895204673081025e-02 -9.159907794189393881e-02 -1.041035673439614645e-01 -8.920698579114968996e-02 -1.043327354945699920e-01 -1.019330594606572132e-01 -1.094738095910906817e-01 -8.263601281543742072e-02 -2.790168859936329598e-02 1.785278270908997877e-01 5.881638351453420954e-01 1.011160099160813397e+00 6.637114279401066241e-01 -3.690056073705886841e-01 -6.077902302617872454e-01 -3.861297122709561602e-01 -2.700423609854579188e-01 -2.327909160895046681e-01 -2.309381928573157050e-01 -2.070026051201784845e-01 -2.096334114803198589e-01 -2.032849253139352164e-01 -2.017741108386576498e-01 -1.584290335146306405e-01 -1.053315208382832741e-01 -1.673640260189358797e-02 8.696852024747613041e-02 2.340185248140937979e-01 3.568509555194737115e-01 4.570874764722521189e-01 4.959979265187576258e-01 5.195222372478747186e-01 4.730864381655623951e-01
